Frequency,Nominal,Min,Max
2974.8949561287036,0.0000030967676692274547,0.0000028994603459141023,0.000003301276590507371
3024.896692450835,0.0000031001949277547846,0.0000029022965827799393,0.0000033053888612522522
3074.89837230436,0.0000031036840005256174,0.000002905183517674677,0.000003309576021929953
3124.899998399949,0.0000031072351288557045,0.000002908121326091427,0.000003313838400635893
3174.9015732775088,0.000003110848558742574,0.0000029111101868642974,0.0000033181763319580625
3249.615361854384,0.000003116393935852108,0.000002915696039932453,0.000003324835190308065
3349.6268448888454,0.0000031239977842189805,0.0000029219823854121998,0.0000033339686957675912
3449.637662132068,0.0000031318555098805093,0.0000029284763326013097,0.00000334341077198714
3549.64786985977,0.0000031399693121768826,0.000002935179476871009,0.000003353164417473923
3649.6575181789317,0.0000031483414701765935,0.0000029420934701487267,0.0000033632327420403508
3798.6839826445157,0.0000031614223604373097,0.000002952890460742957,0.0000033789727032586914
3949.6835316263,0.000003175032095219693,0.0000029641179308311436,0.0000033953586048688194
4049.6913462633174,0.000003184462112176748,0.000002971893002832591,0.0000034067190491052768
4149.698784249285,0.0000031941631278212006,0.0000029798880646152237,0.00000341841147150814
4259.577443831724,0.0000032051556577247805,0.000002988943235150088,0.0000034316673787206393
4384.518217546826,0.0000032180513987356674,0.000002999560523300268,0.000003447227433384517
4514.532090925924,0.000003231925333273545,0.0000030109763633403675,0.000003463978693534388
4664.225552007536,0.000003248546653719639,0.0000030246432645635666,0.0000034840624663274733
4814.561246884289,0.000003265790720073923,0.000003038811984836666,0.00000350491516882726
4939.635614091388,0.0000032806758363959945,0.000003051033567160165,0.0000035229295879035716
5074.4457825461095,0.0000032972906280574124,0.0000030646655323484837,0.0000035430531099775527
5224.461694758609,0.0000033163908644849467,0.0000030803245551908956,0.000003566206658350266
5399.0739946772355,0.000003339579946821794,0.0000030993175383366676,0.0000035943462940477875
5574.495492867493,0.0000033636936691980468,0.0000031190482878464786,0.0000036236397663808903
5724.508712544684,0.0000033851723305504,0.0000031366049547612837,0.000003649761458763302
5899.152481501051,0.00000341119818766984,0.0000031578558552438328,0.000003681450339257911
6074.537019394976,0.000003438213592736432,0.000003179890530363244,0.000003714383802334606
6224.548176373929,0.000003462237687219885,0.000003199463210878322,0.000003743707150306899
6374.558808262734,0.000003487061701361645,0.0000032196662879423534,0.000003774042012782177
6524.568951279463,0.000003512703681641588,0.0000032405124415475063,0.0000038054138625753917
6674.578638386097,0.0000035391824507332095,0.000003262014868053678,0.00000383784933184006
6814.690014960328,0.000003564659164977788,0.000003282680923501259,0.000003869095003221629
6939.740629158989,0.000003588053961087097,0.00000330163837402375,0.000003897820387028593
7074.602462329597,0.0000036140354391442886,0.0000033226693160830957,0.00000392975962076648
7234.500673854416,0.0000036457824512692293,0.000003348336103530059,0.000003968838733018121
7409.453421137081,0.0000036817224940922837,0.0000033773517979307338,0.0000040131484937462074
7574.628703771558,0.0000037167878656727543,0.000003405620236837103,0.000004056449428522551
7724.6359137502395,0.00000374972350858302,0.000003432133711579692,0.0000040971850734004
7899.3670632526,0.0000037894729619369116,0.0000034640830472593577,0.00000414643232738246
8099.382692526635,0.00000383661871022643,0.000003501911113831884,0.000004204956535568863
8299.39756849857,0.0000038857031952339045,0.000003541217457986103,0.000004266020474840432
8499.411744350311,0.0000039367993255297235,0.0000035820516898568327,0.000004329730732313332
8699.425268372619,0.000003989984272624676,0.000003624466114447873,0.000004396200614164938
8899.438184514796,0.000004045339743313758,0.0000036685158875609758,0.000004465550618054485
9099.45053286186,0.000004102952273375326,0.000003714259182983492,0.000004537908945755362
9299.462350050137,0.000004162913544476859,0.000003761757371818713,0.00000461341205980435
9499.473669630333,0.000004225320726305341,0.00000381107521494852,0.000004692205288370413
9699.484522385714,0.000004290276846171681,0.000003862281069665324,0.000004774443482986071
9899.494936611665,0.000004357891188513066,0.0000039154471116490925,0.000004860291734287367
10099.504938362077,0.0000044282797270041524,0.000003970649573530131,0.00000494992615144958
10299.514551666985,0.000004501565592223911,0.000004027969001435299,0.000005043534711627718
10499.52379872535,0.000004577879578129824,0.000004087490530997467,0.000005141318186388477
10699.532700076204,0.0000046573606909361425,0.000004149304184488055,0.000005243491152883236
10899.54127475097,0.0000047401567443171145,0.000004213505190859923,0.000005350283098350267
11099.549540409287,0.000004826425005304614,0.000004280194330660092,0.000005461939627491067
11349.008767288886,0.0000049396004238634735,0.000004367360376570384,0.000005609039105336785
11649.03429473877,0.000005083189118715887,0.000004477465029295369,0.000005796603847462396
11899.579824514814,0.000005209737357998722,0.000004574063813132094,0.000005962765363960216
12099.58676980334,0.000005316109195395511,0.00000465492738927335,0.000006103092839531927
12349.08903522847,0.000005455911910212841,0.000004760748348567642,0.000006288433768252547
12649.110640673518,0.000005633683018592906,0.0000048946229736032525,0.000006525495106462512
12899.612397277679,0.000005790734884058011,0.000005012273277183697,0.000006736196678774295
13099.618315050251,0.0000059230454163272455,0.000005110916653739518,0.000006914683732609062
13349.157276772194,0.000006097361356656811,0.000005240229203303534,0.0000071511944552798
13649.17579929279,0.000006319672979151743,0.000005404172000133947,0.000007454896287403545
13899.640283115243,0.00000651668298261728,0.000005548572387260736,0.000007725937723232209
14099.645385611653,0.0000066831316499351646,0.000005669898966896846,0.000007956405176387499
14349.216006458331,0.000006903088984733339,0.00000582930407323796,0.00000826301036421008
14649.23206178399,0.000007184629867501728,0.000006031945774786434,0.00000865859147022661
14899.66442575134,0.000007435071514877112,0.000006210937538223492,0.000009013363723939285
15247.950681976907,0.000007816352297825879,0.000006480908526688325,0.000009559366748603832
15748.015748023621,0.000008420360291412016,0.000006903545667571695,0.000010436291006141222
16248.07680927192,0.000009109733473649898,0.0000073784931276565445,0.00001145520446301717
16748.134224444228,0.000009900213005806824,0.000007914175581779909,0.000012645800330996562
17248.18831066034,0.000010811058780465572,0.000008520714272916306,0.000014044891919428833
17748.23934929885,0.000011865870986432499,0.000009210309577874058,0.000015697886390812765
18248.28759089466,0.000013093545038376702,0.000009997706785871502,0.000017660103790577255
18748.333259252675,0.000014529303350515866,0.00001090075324552544,0.00001999728903239411
19248.376554920156,0.000016215641901166904,0.000011941044376579092,0.000022783913448078653
19748.4176581315,0.000018202816382138042,0.000013144631282502633,0.00002609650482662935
20248.456731316586,0.000020548086539926813,0.000014542710885632184,0.000029997115018915634
20748.493921246427,0.0000233122153202027,0.000016172117730127883,0.00003449963617544574
21248.52936087578,0.000026550568354450063,0.000018075246644340462,0.000039511805141920916
21748.563170931546,0.00003029468663755552,0.000020298699941541475,0.000044756038097001475
22248.59546128699,0.000034519345693476326,0.00002288940394918575,0.000049703946874327096
22748.62633215465,0.00003909281082468863,0.000025886152827896154,0.000053607642492740736
23248.65587512534,0.00004372000549372482,0.00002930370421069987,0.00005571427225179511
23748.684174075835,0.000047913991232014336,0.00003310648277749427,0.000056209249728237
24248.711305964283,0.000051057001593963306,0.00003717169610414321,0.00005570206635374352
24748.737341529162,0.00005259035789335793,0.000041250556322511156,0.000055089380918133056
25248.762345905194,0.00005226466914869815,0.000041886915682470954,0.0000551033902467868
25748.786379167464,0.000050273421243111435,0.000037369526604173293,0.00005523742829613674
26495.28259898354,0.00004535066827275325,0.00003151186707460282,0.00005526259840841024
27248.853186877426,0.00003998045479305603,0.000026869024223172462,0.00005456422490982357
27748.873851023214,0.00003679763374883556,0.000024569888621674496,0.000052980702108204
28248.89378365107,0.000034169463057949194,0.000022795316907602348,0.00005095592365648475
28748.9130229301,0.0000321518129330443,0.00002147872339080511,0.000048951494811952154
29248.931604419333,0.000030736759206593194,0.000020560766530818236,0.00004728891169236074
29748.949561287034,0.000029887214678617335,0.00001999288262510174,0.000046132942111395046
30248.966924508346,0.000029555523297095673,0.000019737460788720444,0.00004551392070535093
30748.983723043595,0.000029690602709203924,0.000019766524813947055,0.00004535688918220083
31248.99998399949,0.00003023767432326359,0.00002005976123197827,0.00004550543367513587
31749.015732775086,0.000031133319915530294,0.00002060217060995327,0.000045743356834985055
32496.15361854384,0.000032962653431540376,0.000021882681481359996,0.000045666325783978075
33496.268448888455,0.000035604411154191687,0.00002428543131401983,0.00004403533723835728
34496.37662132068,0.0000373781815617086,0.000027295661806483485,0.000041340382534051724
35496.4786985977,0.00003710847313435039,0.000030391236001827548,0.00003907926300982027
36496.57518178932,0.00003447772653600401,0.000025949769981077424,0.00003715345246692011
37986.83982644516,0.000027883838121369982,0.0000192456725775108,0.00003426261814880453
39496.835316263,0.000021151550411791724,0.00001420285072238935,0.000029985081066540753
40496.91346263317,0.000017448644750344395,0.000011790867427089801,0.000025877645132774838
41496.987842492854,0.000014453785055899415,0.000009906160381471636,0.000021815908470787608
42595.77443831723,0.000011875247008258788,0.000008297223440191271,0.000017905586625699154
43845.18217546827,0.000009639134342914663,0.0000068914325419024806,0.000014323934533894121
45145.320909259244,0.000007892437217974024,0.00000577397478197543,0.000011476805130803287
46642.255520075356,0.000006405919857508934,0.000004799895581697076,0.00000907065115640817
48145.61246884289,0.000005288854976798512,0.000004049440452563,0.000007296955870862894
49396.35614091388,0.000004572154505590832,0.000003556438798463865,0.000006185387762426433
50744.4578254611,0.000003956150089346619,0.0000031239886109501673,0.00000525133254225717
52244.616947586095,0.0000034085715059000692,0.000002732019007636494,0.0000044397129454363735
53990.73994677235,0.000002908874998008167,0.0000023668362792452143,0.0000037173366887443303
55744.95492867494,0.0000025113717925500204,0.000002070876810359303,0.0000031556862939591728
57245.087125446844,0.000002236237874410877,0.0000018625695604916813,0.0000027749186917839286
58991.5248150105,0.000001972494433434674,0.0000016599677993624644,0.000002416430076049457
60745.37019394976,0.000001753281527748615,0.0000014893499683303158,0.000002123285072983644
62245.481763739284,0.0000015954873063722423,0.0000013650658873576958,0.0000019153657998023626
63745.588082627335,0.000001459328238952075,0.0000012567907088161736,0.0000017380670922040155
65245.68951279463,0.0000013409636030759566,0.00000116183915808606,0.0000015855935018863435
66745.78638386096,0.000001237372088099161,0.000001078069927724893,0.000001453459457946607
68146.90014960329,0.0000011517790790513399,0.0000010083636915594488,0.0000013452268692226212
69397.40629158988,0.0000010832341338359854,9.521989289781608e-7,0.000001259197685020079
70746.02462329598,0.0000010165285721720805,8.972315894278016e-7,0.0000011760522998230316
72345.00673854417,9.456984835034976e-7,8.385281276103471e-7,0.0000010883828410209
74094.53421137082,8.769854290158495e-7,7.81231404195815e-7,0.0000010039599185921994
75746.28703771558,8.192558807604202e-7,7.328196724138738e-7,9.33516764259597e-7
77246.3591375024,7.720691518768758e-7,6.93048613885904e-7,8.762885523229417e-7
78993.670632526,7.225489996182782e-7,6.51108301768381e-7,8.165793825843111e-7
80993.82692526634,6.719448570697962e-7,6.080375633250576e-7,7.559243501391595e-7
82993.97568498571,6.269450079116702e-7,5.695442488650766e-7,7.024562723090013e-7
84994.11744350311,5.867313419006672e-7,5.349855313959189e-7,6.549857438291366e-7
86994.25268372618,5.506315430862615e-7,5.038290641412946e-7,6.125849422713301e-7
88994.38184514796,5.180888018650574e-7,4.756307979343336e-7,5.745391624111092e-7
90994.5053286186,4.8863864340138e-7,4.50017845212252e-7,5.402568495673087e-7
92994.62350050136,4.618910210470501e-7,4.266641318350577e-7,5.092448355329919e-7
94994.73669630334,4.375163484124531e-7,4.0500405456651176e-7,4.810892122030595e-7
96994.84522385713,4.1523450839621924e-7,3.851474787783681e-7,4.554404204862454e-7
98994.94936611665,3.9480613404556035e-7,3.668942611143908e-7,4.3200152362100286e-7
100995.04938362078,3.760256387946155e-7,3.5007169336871393e-7,4.105189093671278e-7
102995.14551666986,3.58715605173062e-7,3.3453007079320015e-7,3.907748615526585e-7
104995.2379872535,3.427222368097272e-7,3.201390778893627e-7,3.726251126631496e-7
106995.32700076204,3.279116488972051e-7,3.067848232594683e-7,3.5600804086445393e-7
108995.4127475097,3.141668244856111e-7,2.9436739321941735e-7,3.4061729921843263e-7
110995.49540409286,3.0138510301518513e-7,2.827988226408368e-7,3.2633179889000176e-7
113490.08767288885,2.8666593347995007e-7,2.694022231574282e-7,3.099144974203089e-7
116490.3429473877,2.7053537229655013e-7,2.542319261068983e-7,2.9196223832917717e-7
118995.79824514814,2.582310385433676e-7,2.4264783200137795e-7,2.7829661903863705e-7
120995.86769803338,2.4909925859223764e-7,2.3404313084045838e-7,2.681717355608429e-7
123490.8903522847,2.384826241893347e-7,2.2403122592092246e-7,2.5641905383048115e-7
126491.10640673517,2.2672823354220709e-7,2.12936782754025e-7,2.434289090588671e-7
128996.1239727768,2.1767423792555585e-7,2.0438409810115693e-7,2.3343918028751146e-7
130996.18315050252,2.1090051493522435e-7,1.979810987282565e-7,2.2597532599828508e-7
133491.57276772193,2.0296595521875098e-7,1.904760535226992e-7,2.1724323626080241e-7
136491.75799292792,1.9410934811955716e-7,1.8209315847802403e-7,2.075095230603582e-7
138996.40283115243,1.8723414883132936e-7,1.7558146097109124e-7,1.999631466910889e-7
140996.45385611654,1.8205718223545846e-7,1.7067557224300194e-7,1.9428683696952406e-7
143492.16006458332,1.7595605538256204e-7,1.6489099839143183e-7,1.876039234902423e-7
146492.3206178399,1.6910077173317943e-7,1.5838784737513067e-7,1.801030994962918e-7
148996.6442575134,1.6374525659013285e-7,1.5330477649765615e-7,1.7424937604105084e-7
152479.50681976907,1.5681010203004864e-7,1.4671846316669126e-7,1.6667821255774232e-7
157480.15748023623,1.4776014726650584e-7,1.3811800008138453e-7,1.568662038762839e-7
162480.7680927192,1.3965233262152165e-7,1.3040692984307444e-7,1.4825705688702232e-7
167481.34224444226,1.3235755248841075e-7,1.2346426698723285e-7,1.4052062811416873e-7
172481.8831066034,1.257683940633021e-7,1.1718920639528829e-7,1.3354024908618925e-7
177482.39349298849,1.1979486069899167e-7,1.1149717313976758e-7,1.2721839718247237e-7
182482.8759089466,1.1436105484914281e-7,1.0631675258139917e-7,1.216266552535768e-7
187483.33259252674,1.0940258087959859e-7,1.0158728225928471e-7,1.166282536384401e-7
192483.76554920158,1.0486449361096037e-7,9.725694651151936e-8,1.1205298062241524e-7
197484.176581315,1.006996646400155e-7,9.328125668818318e-8,1.0785339934768618e-7
202484.56731316587,9.686747141167344e-8,8.962182978291954e-8,1.0398861964406849e-7
207484.9392124643,9.333273775847878e-8,8.624539996186263e-8,1.0042323222081397e-7
212485.29360875778,9.006487193367366e-8,8.312301329176995e-8,9.712644148056599e-8
217485.63170931546,8.70371609143121e-8,8.022936764044442e-8,9.407135550511895e-8
222485.9546128699,8.422618922511518e-8,7.754226841693451e-8,9.12344012909571e-8
227486.26332154652,8.161135764421504e-8,7.504217735376255e-8,8.859484045775696e-8
232486.5587512534,7.917448252826899e-8,7.271183647952818e-8,8.613436605758379e-8
237486.84174075833,7.689946059438203e-8,7.053595321343599e-8,8.383676523619e-8
242487.1130596428,7.477198714486662e-8,6.850093541917653e-8,8.168763566278251e-8
247487.37341529163,7.277931815842241e-8,6.659466750813081e-8,7.967414609496076e-8
252487.62345905195,7.091006856654823e-8,6.480632043916603e-8,7.778483335361734e-8
257487.86379167467,6.915404052352102e-8,6.312618984163342e-8,7.600942947808281e-8
264952.82598983543,6.672400540498586e-8,6.080106523866395e-8,7.355155065710164e-8
272488.53186877427,6.447817652311877e-8,5.865215015577165e-8,7.127896145237918e-8
277488.7385102322,6.309207991136885e-8,5.732588029701411e-8,6.987566614218784e-8
282488.9378365107,6.178155215202899e-8,5.607195426705287e-8,6.854836704677487e-8
287489.130229301,6.054106230495245e-8,5.4885096336756486e-8,6.72914949415015e-8
292489.3160441933,5.9365579291137207e-8,5.376050599423953e-8,6.609998391839753e-8
297489.4956128703,5.8250518260492855e-8,5.2693807132834106e-8,6.496921739349437e-8
302489.66924508347,5.7191693596471315e-8,5.168100350503045e-8,6.389498079351284e-8
