Frequency,Nominal,Min,Max
2950,0.19631570922767858,0.17324594543000013,0.22134467437219685
3000,0.2031671965777082,0.1792777552583193,0.22908990109863514
3050,0.21014350242319033,0.18541845585004296,0.23697761799631875
3100,0.21724512604685284,0.1916684339144909,0.24500846384054578
3150,0.224472576330712,0.19802808347451073,0.25318308990568106
3200,0.2318263718260248,0.20449780591405306,0.2615021600666505
3300,0.24691512143212554,0.21776911206522553,0.2785763518027365
3400,0.2625157194101585,0.23148571253051003,0.29623660605337393
3500,0.2786326697369012,0.24565108845849687,0.3144886982963576
3600,0.29527063832183714,0.2602688436798754,0.33333861612277255
3700,0.312434455607677,0.27534270646903447,0.35279256302653766
3900,0.34835979703888603,0.30687430110709457,0.3935384613720628
4000,0.3671318295842056,0.32334012852525057,0.41484393559644994
4100,0.38645073356897225,0.340278258656003,0.4367804931560655
4200,0.4063222047720044,0.35769307081646984,0.4593554794269051
4320,0.43090564841719675,0.37922643366611153,0.48729888923196907
4450,0.45845739768399846,0.4033455619969124,0.5186364720516927
4580,0.4869791600503539,0.4282980424551242,0.5510997493265262
4750,0.5257645780740668,0.4622040871248516,0.5952814792334558
4880,0.556580903382515,0.48912260263492446,0.6304151835620659
5000,0.5859316859199346,0.514743759740714,0.6639024942316158
5150,0.6238619772341985,0.5478295152177557,0.7072137038190263
5300,0.6631965014297365,0.5821108938339306,0.7521701734890403
5500,0.7178741923039957,0.629715217564049,0.814733165896474
5650,0.7605933316256179,0.6668685039206423,0.8636697421362408
5800,0.8048122243434437,0.7052899079905427,0.9143765159817384
6000,0.8661580420339604,0.7585321645808697,0.9848105584607895
6150,0.9140004843413269,0.8000063002709631,1.0398109227163967
6300,0.963452304457522,0.8428312766520584,1.0967257663640346
6450,1.0145493905954437,0.8870340690965721,1.1556025253625979
6600,1.0673291055227674,0.9326427074188788,1.2164906880580801
6750,1.1218303410109454,0.9796863111252633,1.2794418785062123
6880,1.170488508894792,1.0216415104971903,1.3357098988892453
7000,1.2166020183730133,1.061363805573163,1.3890923337297594
7150,1.2758963679629511,1.1123850370451727,1.4578145215092047
7320,1.345369614525215,1.172086753774605,1.5384496811875086
7500,1.4216350304388612,1.2375290773128487,1.6271110698827973
7650,1.4873753322487044,1.2938598898762996,1.7036558274972897
7800,1.5551574040725211,1.3518633523155177,1.7826927994190271
8000,1.6488022785923038,1.431871387946484,1.8920776356945885
8200,1.7463049565775783,1.5150204840029624,2.0062020962943197
8400,1.84780537812476,1.6014129758414901,2.125256771711653
8600,1.953451113212996,1.6911564144899252,2.2494433864111394
8800,2.0633977995888557,1.7843638383214684,2.3789755003326563
9000,2.1778096117621777,1.8811540625938092,2.5140792642459004
9200,2.2968597635198793,1.9816519881189363,2.654994233489427
9400,2.4207310465739384,2.0859889304310895,2.801974245053817
9600,2.549616408188451,2.1943029709310053,2.955288363435763
9800,2.6837195708806703,2.306739331604724,3.1152219012034674
10000,2.8232556975639267,2.423450775045838,3.2820775207781585
10200,2.9684521057988906,2.544598031651789,3.456176424556884
10400,3.119549035145829,2.670350256019028,3.637859641183289
10600,3.276800471967141,2.8008855147293676,3.827489416521832
10800,3.4404750364191403,2.9363913079019763,4.025450718712755
11000,3.6108569367979735,3.077065127083474,4.232152867586969
11200,3.7882469968697077,3.2231150522638763,4.448031299708504
11500,4.068174342466523,3.4527531116842973,4.790076482915603
11800,4.365747448447329,3.6957748343025427,5.155511731009406
12000,4.574551274018257,3.8656451020363933,5.413042449015292
12200,4.7921584973942775,4.042114739654172,5.682391313919757
12500,5.136017000790106,4.319824676941646,6.109982177893537
12800,5.502204904023172,4.614069211828986,6.5679526740625676
13000,5.759569975344385,4.819970678740174,6.891411294277774
13200,6.028157627560074,5.034077629052701,7.230350932450865
13500,6.4533597032424215,5.371457889595205,7.769758206929672
13800,6.907243435640177,5.729531449067323,8.349310858337292
14000,7.226907869877314,5.980477556707729,8.759769660268054
14200,7.561097814277706,6.241760571756387,9.190867051540726
14500,8.09137774529956,6.6541820313601985,9.879011632296496
14800,8.659072221744882,7.0928477689962826,10.621160140112085
15000,9.059902807279565,7.400858710813361,11.14848723579951
15500,10.147987592946132,8.23013955043745,12.593395785374021
16000,11.373995737639037,9.153253624304835,14.244057082473914
16500,12.759741372496043,10.183331480400028,16.137018420793595
17000,14.33119925831902,11.33577118130838,18.31634113782019
17500,16.11934371720082,12.628676564222715,20.835013721382346
18000,18.161111759634196,14.083377650673443,23.75633104050667
18500,20.500452762306914,15.725039876690346,27.154862225244642
19000,23.18935916176793,17.583360298514815,31.116214013431147
19500,26.288640878172195,19.693330466984143,35.73404712802187
20000,29.8679621932713,22.09600897882616,41.10157167753769
20500,34.004230734451255,24.839177611321954,47.29305353752957
21000,38.776727477674946,27.97763010944088,54.32947830476135
21500,44.256362734971965,31.572626544795682,62.12424189462107
22000,50.48538507662923,35.689691965606286,70.41569609235478
22500,57.44382252639058,40.393405938413274,78.71972915620097
23000,65.00258374162517,45.737152906851584,86.73547295289592
23500,72.8746837754771,51.74526323775909,94.11462701860562
24000,80.59637670953762,58.385442986076185,99.80317013975319
24500,87.58422752331509,65.5327055225471,105.49889958115905
25000,93.28740227883573,72.93452641737349,111.90481015193154
25500,97.37475083465125,73.04902629202118,118.18996870284394
26000,99.83744830568438,71.79600041640045,125.79563682487615
27000,101.0917078674272,69.01265264435065,140.23761493360084
27500,100.68527680356055,67.78468115253781,144.75561038410586
28000,100.04719102769975,66.76474256536102,148.67349800486613
28500,99.4055711879414,65.98128345591758,151.2168278273313
29000,98.90358148044115,65.44354476980985,152.68663137060878
29500,98.61891347077704,65.15000457090801,153.3974865838462
30000,98.58114316825625,65.0932307142443,153.54013234701154
30500,98.78354309502953,65.26233600749308,153.17043995582287
31000,99.18939162396619,65.64383967847301,152.224842290973
31500,99.73408752258787,66.221418345476,150.55256700141055
32000,100.32487043762214,66.97481271319555,147.96241410400876
33000,101.13304791846433,68.89700015608214,140.75702456538988
34000,100.38553176395584,71.08869952723846,129.67433368895007
35000,96.89628947034541,73.01600380578702,117.9108842998858
36000,90.28285308734108,69.57754538312757,108.68761761301383
37000,81.35801657997172,59.817839084373624,100.92270956421491
39000,62.18516848521218,44.223871813454465,84.64543132993632
40000,53.83331506458897,38.36308314296621,75.47398190194563
41000,46.70837314866587,33.543945175227584,66.3866078281309
42000,40.74460901427804,29.56727549260702,58.0187983527882
43200,34.89580961003426,25.671318356312575,49.35553905219936
44500,29.847333037412817,22.281057261870444,41.68703930562321
45800,25.826618436305186,19.54484570654947,35.55590704844138
47500,21.715627700641587,16.698694690372026,29.344180905309532
48800,19.224374823721714,14.943408381013262,25.636828502372122
50000,17.304489414560273,13.571932728864333,22.820062719408597
51500,15.304338093716538,12.123375060643088,19.929962577040666
53000,13.651092232120149,10.909079798535823,17.579860157103443
55000,11.856289212620496,9.571437298709641,15.072572932303904
56500,10.746922487849199,8.73358425404937,13.54759806681769
58000,9.796210420464362,8.008275951658126,12.25672557655922
60000,8.725102282499845,7.182505688873531,10.820943735428633
61500,8.040486909502647,6.649625809945521,9.91396821437764
63000,7.438707481465021,6.177770751676806,9.123886676247789
64500,6.906491414621972,5.757649505819358,8.430865371214129
66000,6.43316095149287,5.381704881670617,7.819150992413409
67500,6.010043880948508,5.0437359994478,7.276101524590474
68800,5.6784339691535575,4.777560133995594,6.853033339071973
70000,5.3977030834862525,4.551306026172854,6.496647848009613
71500,5.0769928316068516,4.29177392922284,6.091526780972239
73200,4.749037518190909,4.025182064365883,5.679514055363216
75000,4.437345712870689,3.770657086092413,5.290086758593681
76500,4.20187504343622,3.5776083278353394,4.997303250118162
78000,3.9857801995512037,3.3998512326800006,4.729696773041889
80000,3.7241282444195987,3.183841796482505,4.407082191546344
82000,3.488848929481806,2.988860236758799,4.118320466958785
84000,3.276391374410304,2.8121715608407225,3.8586701277662088
86000,3.0837954871468427,2.651480950675568,3.6242087303300274
88000,2.908576288545562,2.504850249288875,3.411666732583689
90000,2.7486340339227793,2.3706325257382406,3.2182996646567186
92000,2.602183728234205,2.247420355525358,3.04178878964576
94000,2.467699370918829,2.1340046074700454,2.8801631907016674
96000,2.3438694954009884,2.0293413518722825,2.731738136241653
98000,2.2295614469693725,1.9325250995717043,2.595065929806746
100000,2.123792478098678,1.8427670155118068,2.468896420423472
102000,2.0257062044823284,1.759377070260383,2.3521450506015773
104000,1.9345533075535277,1.6817493308708618,2.243866831716409
106000,1.8496756243378065,1.6093497710359512,2.1432350149041164
108000,1.7704929570913739,1.541706115617628,2.0495235074671836
110000,1.6964920803121137,1.4783993377077904,1.9620922965888425
112000,1.627217533497383,1.419056505576328,1.8803753026129966
115000,1.5312927182293474,1.33675615122138,1.7674304457622911
118000,1.4439092193670198,1.2616531077824902,1.6647552078288232
120000,1.3898932632258412,1.2151652370209889,1.6013888344192493
122000,1.3389594766622088,1.1712854669535415,1.5417100460337494
125000,1.2678275649908384,1.1099320038971179,1.4584825872857292
128000,1.2024002926782935,1.0534233220146951,1.3820512128655524
130000,1.1616474944656874,1.01818872429112,1.334503375351538
132000,1.1229982478394882,0.9847464694776077,1.289451929674332
135000,1.068653297852282,0.9376793968737231,1.2261744141112119
138000,1.0182766220118946,0.894003231156105,1.1675904079454433
140000,0.9867044710590175,0.8666077590134295,1.130910486683059
142000,0.9566213430706174,0.840487983548328,1.095986338548964
145000,0.9140846277850038,0.8035279831778511,1.046647753336331
148000,0.8744009599639104,0.7690179315460113,1.0006642258641025
150000,0.8494033218386566,0.7472647976405293,0.9717209329222811
155000,0.7915236328776791,0.6968542550477976,0.9047732653439197
160000,0.7395080168824242,0.6514992261638937,0.8446895567064931
165000,0.6925773041964366,0.610535550872296,0.7905457375217481
170000,0.6500792945305356,0.5734060070704508,0.7415704062463323
175000,0.611464447447398,0.5396400861233766,0.6971151880183223
180000,0.5762668810881207,0.5088381305923438,0.6566316565507351
185000,0.5440893855843149,0.48065878403491763,0.6196531978175546
190000,0.5145915036388286,0.454808980293757,0.5857806337098787
195000,0.487479976475856,0.43103589775162615,0.5546707342975197
200000,0.46250102995684744,0.40912044699659567,0.5260269693538355
205000,0.4394341040095062,0.38887196467384905,0.49959201042550316
210000,0.41808672278633696,0.37012386322082497,0.4751416121934561
215000,0.3982902728891144,0.3527300434379472,0.4524795886438002
220000,0.37989650933486446,0.3365619198495729,0.43143366427619834
225000,0.36277464845812074,0.3215059413809797,0.4118520292624068
230000,0.34680893702732696,0.307461514744447,0.3936004644042277
235000,0.3318966099297899,0.2943392570559335,0.37655992998466353
240000,0.31794616661018776,0.28205951902257165,0.36062453436499686
245000,0.30487591031970446,0.2705511315985242,0.3456998150612567
250000,0.2926127050955287,0.259750338077954,0.33170127821713397
255000,0.2810909139492227,0.249599880756905,0.3185531527517494
260000,0.2702514885255594,0.24004821698469192,0.3061873236528494
270000,0.25041189250854384,0.2225597153385392,0.28356300171116644
275000,0.2413200387111513,0.21454273543269367,0.27319892198829115
280000,0.23272609027269806,0.20696331962398937,0.2634046882235043
285000,0.22459410538885782,0.19979001098044902,0.2541389688626634
290000,0.21689134771809723,0.19299414511453916,0.24536413836432722
295000,0.20958794743663234,0.18654955639300583,0.23704588301915175
300000,0.20265660359210738,0.1804323197498267,0.22915285509967845
305000,0.19607232207760694,0.17462052323484645,0.2216563686516605
